Time (t),P_PAni,P_TiO2
0.0,1.0,0.0
0.005005005005005005,0.9999436383899335,5.6361610066421335e-05
0.01001001001001001,0.9997745662662586,0.00022543373374132823
0.015015015015015015,0.9994928217456837,0.00050717825431629
0.02002002002002002,0.9990984683465078,0.0009015316534920787
0.025025025025025023,0.9985915949743014,0.0014084050256986435
0.03003003003003003,0.9979723159018614,0.0020276840981385547
0.035035035035035036,0.9972407707434506,0.0027592292565494004
0.04004004004004004,0.9963971244233206,0.0036028755766793217
0.04504504504504504,0.9954415671385314,0.004558432861468604
0.050050050050050046,0.994374314316071,0.0056256856839289205
0.055055055055055056,0.9931956065642893,0.006804393435710584
0.06006006006006006,0.9919057096186533,0.008094290381346842
0.06506506506506507,0.990504914281837,0.009495085718162993
0.07007007007007007,0.9889935363581631,0.011006463641836807
0.07507507507507508,0.9873719165824044,0.0126280834175955
0.08008008008008008,0.9856404205429669,0.014359579457033159
0.08508508508508508,0.9837994385994686,0.016200561400531364
0.09009009009009009,0.9818493857947356,0.01815061420526435
0.09509509509509509,0.979790701761231,0.020209298238768974
0.10010010010010009,0.9776238506219418,0.022376149378058232
0.10510510510510511,0.9753493208857438,0.0246506791142562
0.11011011011011011,0.9729676253372693,0.027032374662730577
0.11511511511511512,0.9704793009213019,0.02952069907869814
0.12012012012012012,0.9678849086217228,0.03211509137827711
0.12512512512512514,0.9651850333350411,0.03481496666495889
0.13013013013013014,0.9623802837385291,0.037619716261470926
0.13513513513513514,0.9594712921529991,0.04052870784700084
0.14014014014014015,0.956458714400249,0.043541285599750935
0.14514514514514515,0.9533432296552092,0.0466567703447908
0.15015015015015015,0.9501255402928249,0.049874459707174995
0.15515515515515516,0.9468063717297092,0.05319362827029087
0.16016016016016016,0.9433864722605988,0.05661352773940124
0.16516516516516516,0.9398666128896552,0.06013338711034472
0.17017017017017017,0.936247587156644,0.0637524128433559
0.17517517517517517,0.9325302109580339,0.06746978904196604
0.18018018018018017,0.9287153223630559,0.07128467763694402
0.18518518518518517,0.9248037814247639,0.07519621857523613
0.19019019019019018,0.9207964699861381,0.07920353001386184
0.19519519519519518,0.9166942914812776,0.0833057085187223
0.20020020020020018,0.9124981707317239,0.08750182926827621
0.20520520520520522,0.9082090537379622,0.09179094626203774
0.21021021021021022,0.9038279074661513,0.09617209253384869
0.21521521521521522,0.8993557196301222,0.10064428036987784
0.22022022022022023,0.8947934984687027,0.10520650153129735
0.22522522522522523,0.8901422725184134,0.10985772748158662
0.23023023023023023,0.8854030903815876,0.11459690961841239
0.23523523523523523,0.8805770204899679,0.11942297951003206
0.24024024024024024,0.8756651508638319,0.12433484913616807
0.24524524524524524,0.8706685888667016,0.12933141113329824
0.2502502502502503,0.8655884609556933,0.1344115390443068
0.2552552552552553,0.8604259124275601,0.13957408757243991
0.2602602602602603,0.8551821071604906,0.14481789283950938
0.2652652652652653,0.8498582273517158,0.1501417726482842
0.2702702702702703,0.8444554732509868,0.1555445267490132
0.2752752752752753,0.8389750628899835,0.16102493711001659
0.2802802802802803,0.8334182318077127,0.16658176819228743
0.2852852852852853,0.8277862327719612,0.1722137672280389
0.2902902902902903,0.8220803354968629,0.17791966450313704
0.2952952952952953,0.8163018263566475,0.18369817364335245
0.3003003003003003,0.8104520080956304,0.1895479919043695
0.3053053053053053,0.804532199534515,0.19546780046548506
0.3103103103103103,0.798543735273068,0.20145626472693193
0.3153153153153153,0.7924879653892403,0.20751203461075973
0.3203203203203203,0.7863662551347947,0.21363374486520512
0.3253253253253253,0.7801799846275171,0.21982001537248286
0.3303303303303303,0.7739305485400714,0.2260694514599286
0.3353353353353353,0.7676193557855773,0.2323806442144227
0.34034034034034033,0.7612478291999751,0.23875217080002487
0.34534534534534533,0.7548174052212527,0.24518259477874724
0.35035035035035034,0.7483295335656054,0.2516704664343946
0.35535535535535534,0.741785676900603,0.258214323099397
0.36036036036036034,0.7351873105154361,0.26481268948456405
0.36536536536536535,0.7285359219883177,0.2714640780116823
0.37037037037037035,0.7218330108511143,0.2781669891488857
0.37537537537537535,0.7150800882512809,0.28491991174871895
0.38038038038038036,0.7082786766111796,0.29172132338882045
0.38538538538538536,0.7014303092848527,0.29856969071514716
0.39039039039039036,0.6945365302123362,0.3054634697876638
0.39539539539539537,0.6875988935715814,0.31240110642841845
0.40040040040040037,0.6806189634280734,0.31938103657192657
0.40540540540540543,0.673598313382216,0.3264016866177841
0.41041041041041043,0.6665385262145702,0.3334614737854298
0.41541541541541543,0.6594411935290224,0.34055880647097747
0.42042042042042044,0.6523079153939619,0.3476920846060381
0.42542542542542544,0.6451402999815514,0.35485970001844863
0.43043043043043044,0.637939963205171,0.3620600367948291
0.43543543543543545,0.6307085283551156,0.3692914716448844
0.44044044044044045,0.6234476257326301,0.37655237426736987
0.44544544544544545,0.6161588922823641,0.383841107717636
0.45045045045045046,0.6088439712233277,0.3911560287766723
0.45545545545545546,0.6015045116784348,0.39849548832156534
0.46046046046046046,0.5941421683027127,0.40585783169728723
0.46546546546546547,0.5867586009102683,0.41324139908973173
0.47047047047047047,0.5793554741000859,0.4206445258999141
0.4754754754754755,0.5719344568807522,0.42806554311924777
0.4804804804804805,0.5644972222941823,0.43550277770581763
0.4854854854854855,0.5570454470384392,0.4429545529615608
0.4904904904904905,0.5495808110897278,0.45041918891027216
0.4954954954954955,0.5421049973236509,0.45789500267634914
0.5005005005005005,0.5346196911358098,0.46538030886419024
0.5055055055055055,0.527126580061839,0.4728734199381609
0.5105105105105106,0.5196273533969568,0.48037264660304313
0.5155155155155156,0.5121237018151195,0.48787629818488054
0.5205205205205206,0.504617316987865,0.49538268301213495
0.5255255255255256,0.49710989120293203,0.502890108797068
0.5305305305305306,0.4896031169827394,0.5103968830172606
0.5355355355355356,0.4820986867028128,0.5179013132971871
0.5405405405405406,0.47459829221024513,0.5254017077897548
0.5455455455455456,0.4671036244422754,0.5328963755577245
0.5505505505505506,0.45961637304507286,0.5403836269549273
0.5555555555555556,0.45213822599281217,0.5478617740071878
0.5605605605605606,0.44467086920712623,0.5553291307928737
0.5655655655655656,0.43721598617702057,0.5627840138229795
0.5705705705705706,0.42977525757933693,0.570224742420663
0.5755755755755756,0.42235036089985056,0.5776496391001493
0.5805805805805806,0.4149429700550873,0.5850570299449127
0.5855855855855856,0.4075547550149446,0.5924452449850554
0.5905905905905906,0.4001873814262033,0.5998126185737966
0.5955955955955956,0.3928425102370131,0.6071574897629869
0.6006006006006006,0.3855217973224377,0.6144782026775623
0.6056056056056056,0.378226893111144,0.621773106888856
0.6106106106106106,0.3709594422133185,0.6290405577866816
0.6156156156156156,0.3637210830498959,0.6362789169501041
0.6206206206206206,0.3565134474831829,0.6434865525168171
0.6256256256256256,0.349338160448961,0.650661839551039
0.6306306306306306,0.3421968395901496,0.6578031604098504
0.6356356356356356,0.33509109489211525,0.6649089051078847
0.6406406406406406,0.3280225283197057,0.6719774716802942
0.6456456456456456,0.32099273345609225,0.6790072665439076
0.6506506506506506,0.31400329514350295,0.6859967048564971
0.6556556556556556,0.30705578912592457,0.6929442108740754
0.6606606606606606,0.3001517816938577,0.6998482183061422
0.6656656656656657,0.2932928293312014,0.7067071706687987
0.6706706706706707,0.2864804783643496,0.7135195216356504
0.6756756756756757,0.27971626461357796,0.7202837353864221
0.6806806806806807,0.27300171304679755,0.7269982869532026
0.6856856856856857,0.2663383374357572,0.7336616625642428
0.6906906906906907,0.2597276400147685,0.7402723599852314
0.6956956956956957,0.2531711111420326,0.7468288888579674
0.7007007007007007,0.24667022896364463,0.7533297710363552
0.7057057057057057,0.24022645908035006,0.7597735409196499
0.7107107107107107,0.23384125421713106,0.7661587457828689
0.7157157157157157,0.2275160538956944,0.7724839461043056
0.7207207207207207,0.22125228410993647,0.7787477158900635
0.7257257257257257,0.2150513570044581,0.7849486429955418
0.7307307307307307,0.2089146705562017,0.7910853294437983
0.7357357357357357,0.20284360825928194,0.7971563917407181
0.7407407407407407,0.1968395388130823,0.8031604611869176
0.7457457457457457,0.19090381581368654,0.8090961841863133
0.7507507507507507,0.18503777744871533,0.8149622225512846
0.7557557557557557,0.17924274619563646,0.8207572538043635
0.7607607607607607,0.1735200285236172,0.8264799714763829
0.7657657657657657,0.16787091459898532,0.8321290854010146
0.7707707707707707,0.16229667799436576,0.8377033220056342
0.7757757757757757,0.1567985754015583,0.8432014245984417
0.7807807807807807,0.15137784634822068,0.8486221536517793
0.7857857857857857,0.1460357129184216,0.8539642870815783
0.7907907907907907,0.14077337947712623,0.8592266205228738
0.7957957957957957,0.13559203239867643,0.8644079676013237
0.8008008008008007,0.1304928397993268,0.8695071602006732
0.8058058058058059,0.12547695127389707,0.8745230487261029
0.8108108108108109,0.12054549763660012,0.8794545023634
0.8158158158158159,0.1156995906661038,0.8843004093338963
0.8208208208208209,0.1109403228548844,0.8890596771451157
0.8258258258258259,0.10626876716292834,0.8937312328370718
0.8308308308308309,0.1016859767758368,0.8983140232241632
0.8358358358358359,0.09719298486738903,0.902807015132611
0.8408408408408409,0.09279080436661696,0.9072091956333831
0.8458458458458459,0.0884804277294439,0.911519572270556
0.8508508508508509,0.08426282671493888,0.9157371732850611
0.8558558558558559,0.0801389521662371,0.9198610478337629
0.8608608608608609,0.07610973379617568,0.9238902662038244
0.8658658658658659,0.07217607997769315,0.9278239200223067
0.8708708708708709,0.0683388775390402,0.9316611224609597
0.8758758758758759,0.06459899156384713,0.9354010084361529
0.8808808808808809,0.060957265196094096,0.9390427348039058
0.8858858858858859,0.05741451945002712,0.9425854805499728
0.8908908908908909,0.0539715530250634,0.9460284469749366
0.8958958958958959,0.050629142125727424,0.9493708578742726
0.9009009009009009,0.04738804028665833,0.9526119597133417
0.9059059059059059,0.044248978202728294,0.9557510217972716
0.9109109109109109,0.041212663564309894,0.9587873364356901
0.9159159159159159,0.038279780897729904,0.9617202191022701
0.9209209209209209,0.035450991410945196,0.9645490085890548
0.9259259259259259,0.032726932844475864,0.9672730671555242
0.9309309309309309,0.03010821932762876,0.9698917806723711
0.9359359359359359,0.027595441240044347,0.9724045587599556
0.9409409409409409,0.025189165078597656,0.9748108349214024
0.9459459459459459,0.022889933329683563,0.9771100666703164
0.950950950950951,0.020698264346915223,0.9793017356530848
0.955955955955956,0.018614652234263035,0.981385347765737
0.960960960960961,0.01663956673466069,0.9833604332653393
0.965965965965966,0.014773453124103294,0.9852265468758968
0.970970970970971,0.013016732111261482,0.9869832678887386
0.975975975975976,0.011369799742634133,0.9886302002573659
0.980980980980981,0.00983302731326112,0.9901669726867388
0.985985985985986,0.008406761283016137,0.9915932387169838
0.990990990990991,0.007091323198498578,0.9929086768015015
0.995995995995996,0.005887009620541986,0.994112990379458
1.001001001001001,0.004794092057355446,0.9952059079426445
1.006006006006006,0.0038128169033131458,0.9961871830966867
1.011011011011011,0.0029434053834054507,0.9970565946165946
1.016016016016016,0.002186053503364651,0.9978139464966354
1.021021021021021,0.00154093200547613,0.9984590679945238
1.026026026026026,0.0010081863300851251,0.9989918136699149
1.031031031031031,0.0005879365828077209,0.9994120634171921
1.0360360360360361,0.00028027750745346326,0.9997197224925465
1.0410410410410411,8.527846466570624e-05,0.9999147215353343
1.0460460460460461,2.983416284501622e-06,0.9999970165837154
1.0510510510510511,3.3410915435558426e-05,0.9999665890845644
1.0560560560560561,0.00017655410234750684,0.9998234458976524
1.0610610610610611,0.00043238070589840923,0.9995676192941017
1.0660660660660661,0.0008008330508911699,0.9991991669491088
1.0710710710710711,0.0012818280710562026,0.9987181719289437
1.0760760760760761,0.0018752573277784257,0.9981247426722215
1.0810810810810811,0.002580987034544362,0.9974190129654557
1.0860860860860861,0.0033988580871038305,0.9966011419128961
1.0910910910910911,0.004328686099339435,0.9956713139006604
1.0960960960960962,0.0053702614448357605,0.9946297385551642
1.1011011011011012,0.006523349304138892,0.993476650695861
1.1061061061061062,0.007787689717695641,0.9922123102823044
1.1111111111111112,0.009162997644460482,0.9908370023555394
1.1161161161161162,0.01064896302615706,0.989351036973843
1.1211211211211212,0.012245250857179712,0.9877547491428202
1.1261261261261262,0.013951501260119296,0.9860484987398807
1.1311311311311312,0.01576732956689627,0.9842326704331038
1.1361361361361362,0.01769232640548273,0.9823076735945173
1.1411411411411412,0.019726057792193892,0.9802739422078062
1.1461461461461462,0.02186806522952818,0.9781319347704718
1.1511511511511512,0.024117865809533817,0.9758821341904662
1.1561561561561562,0.026474952322678727,0.9735250476773212
1.1611611611611612,0.02893879337219913,0.9710612066278009
1.1661661661661662,0.03150883349390102,0.9684911665060989
1.1711711711711712,0.03418449328138764,0.9658155067186125
1.1761761761761762,0.03696516951668452,0.9630348304833156
1.1811811811811812,0.03985023530623289,0.9601497646937672
1.1861861861861862,0.04283904022222056,0.9571609597777795
1.1911911911911912,0.045930910449218584,0.9540690895507815
1.1961961961961962,0.04912514893609051,0.9508748510639095
1.2012012012012012,0.052421035553140115,0.9475789644468599
1.2062062062062062,0.05581782725446206,0.944182172745538
1.2112112112112112,0.059314758245458975,0.9406852417545409
1.2162162162162162,0.06291104015548707,0.937088959844513
1.2212212212212212,0.06660586221559152,0.9333941377844085
1.2262262262262262,0.07039839144129151,0.9296016085587084
1.2312312312312312,0.07428777282037347,0.9257122271796264
1.2362362362362362,0.07827312950565064,0.9217268704943493
1.2412412412412412,0.08235356301264515,0.9176464369873549
1.2462462462462462,0.08652815342214812,0.9134718465778519
1.2512512512512513,0.09079595958761212,0.9092040404123879
1.2562562562562563,0.09515601934732944,0.9048439806526706
1.2612612612612613,0.09960734974134791,0.9003926502586521
1.2662662662662663,0.10414894723307572,0.8958510527669243
1.2712712712712713,0.10877978793552527,0.8912202120644748
1.2762762762762763,0.11349882784214474,0.8865011721578552
1.2812812812812813,0.11830500306218573,0.8816949969378143
1.2862862862862863,0.12319723006055354,0.8768027699394465
1.2912912912912913,0.12817440590208645,0.8718255940979135
1.2962962962962963,0.13323540850020843,0.8667645914997916
1.3013013013013013,0.1383790968698995,0.8616209031301004
1.3063063063063063,0.14360431138492694,0.8563956886150731
1.3113113113113113,0.14890987403927872,0.8510901259607213
1.3163163163163163,0.1542945887127407,0.8457054112872592
1.3213213213213213,0.15975724144055803,0.8402427585594419
1.3263263263263263,0.16529660068711874,0.8347033993128812
1.3313313313313313,0.17091141762359938,0.8290885823764005
1.3363363363363363,0.176600426409509,0.823399573590491
1.3413413413413413,0.1823623444780679,0.8176376555219321
1.3463463463463463,0.18819587282535855,0.8118041271746416
1.3513513513513513,0.19409969630318089,0.8059003036968192
1.3563563563563563,0.20007248391554786,0.7999275160844521
1.3613613613613613,0.20611288911875378,0.7938871108812462
1.3663663663663663,0.21221955012494784,0.7877804498750522
1.3713713713713713,0.2183910902091443,0.7816089097908556
1.3763763763763763,0.22462611801960022,0.7753738819803998
1.3813813813813813,0.23092322789149075,0.7690767721085092
1.3863863863863863,0.2372810001638113,0.7627189998361887
1.3913913913913913,0.2436980014994351,0.7563019985005648
1.3963963963963963,0.2501727852082538,0.7498272147917462
1.4014014014014013,0.2567038915733289,0.7432961084266712
1.4064064064064064,0.2632898481799792,0.7367101518200209
1.4114114114114114,0.26992917024773205,0.7300708297522679
1.4164164164164164,0.2766203609650616,0.7233796390349384
1.4214214214214214,0.28336191182683934,0.7166380881731607
1.4264264264264264,0.29015230297442174,0.7098476970255782
1.4314314314314314,0.29699000353829647,0.7030099964617035
1.4364364364364364,0.30387347198321185,0.696126528016788
1.4414414414414414,0.3108011564557103,0.6891988435442897
1.4464464464464464,0.31777149513398817,0.6822285048660118
1.4514514514514514,0.324782916580003,0.6752170834199969
1.4564564564564564,0.3318338400937488,0.6681661599062512
1.4614614614614614,0.3389226760696183,0.6610773239303817
1.4664664664664664,0.34604782635477566,0.6539521736452243
1.4714714714714714,0.3532076846094524,0.6467923153905475
1.4764764764764764,0.36040063666909233,0.6395993633309077
1.4814814814814814,0.3676250609082585,0.6323749390917415
1.4864864864864864,0.37487932860622336,0.6251206713937766
1.4914914914914914,0.38216180431415764,0.6178381956858424
1.4964964964964964,0.38947084622383654,0.6105291537761633
1.5015015015015014,0.39680480653777994,0.6031951934622202
1.5065065065065064,0.40416203184074184,0.5958379681592582
1.5115115115115114,0.41154086347246754,0.5884591365275325
1.5165165165165164,0.41893963790163247,0.5810603620983676
1.5215215215215214,0.42635668710087893,0.573643312899121
1.5265265265265264,0.43379033892286795,0.566209661077132
1.5315315315315314,0.4412389174772581,0.5587610825227419
1.5365365365365364,0.448700743508529,0.5512992564914709
1.5415415415415414,0.45617413477456437,0.5438258652254356
1.5465465465465464,0.4636574064259063,0.5363425935740938
1.5515515515515514,0.4711488713855995,0.5288511286144005
1.5565565565565564,0.47864684072953645,0.5213531592704637
1.5615615615615615,0.4861496240672194,0.5138503759327807
1.5665665665665665,0.4936555299228527,0.5063444700771473
1.5715715715715715,0.5011628661166802,0.4988371338833198
1.5765765765765765,0.5086699401464813,0.49133005985351874
1.5815815815815815,0.5161750595691389,0.483824940430861
1.5865865865865865,0.5236765323821958,0.4763234676178042
1.5915915915915915,0.5311726674053091,0.4688273325946909
1.5965965965965965,0.5386617746615223,0.46133822533847757
1.6016016016016015,0.5461421657582639,0.45385783424173604
1.6066066066066067,0.553612154267989,0.4463878457320109
1.6116116116116117,0.5610700561083795,0.43892994389162066
1.6166166166166167,0.5685141899220135,0.4314858100779867
1.6216216216216217,0.5759428774554218,0.42405712254457817
1.6266266266266267,0.5833544439374442,0.41664555606255577
1.6316316316316317,0.5907472184568007,0.40925278154319933
1.6366366366366367,0.5981195343387922,0.40188046566120783
1.6416416416416417,0.6054697295210463,0.3945302704789537
1.6466466466466467,0.6127961469282242,0.3872038530717758
1.6516516516516517,0.6200971348456014,0.37990286515439853
1.6566566566566567,0.6273710472914414,0.37262895270855845
1.6616616616616617,0.634616244388077,0.365383755611923
1.6666666666666667,0.6418310927316131,0.3581689072683868
1.6716716716716717,0.6490139657601739,0.350986034239826
1.6766766766766767,0.6561632441206043,0.3438367558793957
1.6816816816816818,0.6632773160335472,0.3367226839664527
1.6866866866866868,0.6703545776568144,0.3296454223431856
1.6916916916916918,0.6773934334469659,0.3226065665530342
1.6966966966966968,0.68439229651902,0.31560770348097994
1.7017017017017018,0.6913495890042117,0.30865041099578827
1.7067067067067068,0.6982637424057162,0.30173625759428385
1.7117117117117118,0.7051331979522613,0.29486680204773863
1.7167167167167168,0.711956406949548,0.28804359305045213
